!Kinetic energy of electrons,
!first row: H nuclei concentration [cm-3], nb of rows (= nb of times),
!data: time (s), conc of electrons (from spectrum) [cm-3], total energy [eV cm-3], median energy [eV],
! 2.000000e+04   78     
0.0000e+00   1.0000e-01   1.0000e+02   1.0000e+03   
1.0000e+01   1.0044e-01   9.9988e+01   9.9548e+02   
1.0798e+01   1.0048e-01   9.9987e+01   9.9512e+02   
1.1659e+01   1.0052e-01   9.9986e+01   9.9473e+02   
1.2589e+01   1.0056e-01   9.9985e+01   9.9431e+02   
1.3594e+01   1.0060e-01   9.9984e+01   9.9386e+02   
1.4678e+01   1.0065e-01   9.9983e+01   9.9338e+02   
1.5849e+01   1.0070e-01   9.9981e+01   9.9285e+02   
1.7113e+01   1.0076e-01   9.9980e+01   9.9228e+02   
1.8478e+01   1.0082e-01   9.9978e+01   9.9167e+02   
1.9953e+01   1.0088e-01   9.9976e+01   9.9101e+02   
2.1544e+01   1.0095e-01   9.9974e+01   9.9030e+02   
2.3263e+01   1.0103e-01   9.9972e+01   9.8954e+02   
2.5119e+01   1.0111e-01   9.9970e+01   9.8871e+02   
2.7123e+01   1.0120e-01   9.9968e+01   9.8782e+02   
2.9286e+01   1.0130e-01   9.9965e+01   9.8686e+02   
3.1623e+01   1.0140e-01   9.9962e+01   9.8582e+02   
3.4145e+01   1.0151e-01   9.9959e+01   9.8471e+02   
3.6869e+01   1.0163e-01   9.9956e+01   9.8351e+02   
3.9811e+01   1.0176e-01   9.9953e+01   9.8221e+02   
4.2987e+01   1.0190e-01   9.9949e+01   9.8082e+02   
4.6416e+01   1.0206e-01   9.9945e+01   9.7931e+02   
5.0119e+01   1.0222e-01   9.9940e+01   9.7770e+02   
5.4117e+01   1.0240e-01   9.9935e+01   9.7595e+02   
5.8434e+01   1.0259e-01   9.9930e+01   9.7408e+02   
6.3096e+01   1.0280e-01   9.9925e+01   9.7206e+02   
6.8129e+01   1.0302e-01   9.9919e+01   9.6989e+02   
7.3564e+01   1.0326e-01   9.9912e+01   9.6756e+02   
7.9433e+01   1.0352e-01   9.9905e+01   9.6505e+02   
8.5770e+01   1.0381e-01   9.9898e+01   9.6236e+02   
9.2612e+01   1.0411e-01   9.9889e+01   9.5946e+02   
1.0000e+02   1.0444e-01   9.9880e+01   9.5635e+02   
1.0798e+02   1.0479e-01   9.9871e+01   9.5301e+02   
1.1659e+02   1.0518e-01   9.9861e+01   9.4943e+02   
1.2589e+02   1.0559e-01   9.9849e+01   9.4559e+02   
1.3594e+02   1.0604e-01   9.9837e+01   9.4148e+02   
1.4678e+02   1.0653e-01   9.9824e+01   9.3707e+02   
1.5849e+02   1.0705e-01   9.9810e+01   9.3235e+02   
1.7113e+02   1.0762e-01   9.9795e+01   9.2729e+02   
1.8478e+02   1.0823e-01   9.9778e+01   9.2189e+02   
1.9953e+02   1.0889e-01   9.9760e+01   9.1613e+02   
2.1544e+02   1.0961e-01   9.9741e+01   9.0997e+02   
2.3263e+02   1.1038e-01   9.9720e+01   9.0340e+02   
2.5119e+02   1.1122e-01   9.9698e+01   8.9640e+02   
2.7123e+02   1.1213e-01   9.9673e+01   8.8895e+02   
2.9286e+02   1.1310e-01   9.9647e+01   8.8102e+02   
3.1623e+02   1.1416e-01   9.9618e+01   8.7260e+02   
3.4145e+02   1.1531e-01   9.9587e+01   8.6366e+02   
3.6869e+02   1.1655e-01   9.9554e+01   8.5419e+02   
3.9811e+02   1.1789e-01   9.9518e+01   8.4417e+02   
4.2987e+02   1.1934e-01   9.9478e+01   8.3357e+02   
4.6416e+02   1.2091e-01   9.9436e+01   8.2239e+02   
5.0119e+02   1.2261e-01   9.9390e+01   8.1060e+02   
5.4117e+02   1.2445e-01   9.9340e+01   7.9820e+02   
5.8434e+02   1.2645e-01   9.9286e+01   7.8518e+02   
6.3096e+02   1.2861e-01   9.9228e+01   7.7153e+02   
6.8129e+02   1.3095e-01   9.9164e+01   7.5725e+02   
7.3564e+02   1.3349e-01   9.9095e+01   7.4233e+02   
7.9433e+02   1.3624e-01   9.9021e+01   7.2679e+02   
8.5770e+02   1.3923e-01   9.8940e+01   7.1063e+02   
9.2612e+02   1.4247e-01   9.8852e+01   6.9386e+02   
1.0000e+03   1.4598e-01   9.8757e+01   6.7652e+02   
1.0798e+03   1.4979e-01   9.8653e+01   6.5861e+02   
1.1659e+03   1.5393e-01   9.8541e+01   6.4017e+02   
1.2589e+03   1.5842e-01   9.8418e+01   6.2123e+02   
1.3594e+03   1.6331e-01   9.8285e+01   6.0184e+02   
1.4678e+03   1.6861e-01   9.8141e+01   5.8204e+02   
1.5849e+03   1.7438e-01   9.7983e+01   5.6188e+02   
1.7113e+03   1.8066e-01   9.7812e+01   5.4142e+02   
1.8478e+03   1.8748e-01   9.7625e+01   5.2071e+02   
1.9953e+03   1.9491e-01   9.7422e+01   4.9983e+02   
2.1544e+03   2.0300e-01   9.7201e+01   4.7882e+02   
2.3263e+03   2.1181e-01   9.6959e+01   4.5777e+02   
2.5119e+03   2.2140e-01   9.6695e+01   4.3674e+02   
2.7123e+03   2.3186e-01   9.6408e+01   4.1579e+02   
2.9286e+03   2.4327e-01   9.6094e+01   3.9501e+02   
3.1623e+03   2.5570e-01   9.5751e+01   3.7446e+02   
3.4145e+03   2.6927e-01   9.5376e+01   3.5420e+02   
