!Kinetic energy of electrons,
!first row: H nuclei concentration [cm-3], nb of rows (= nb of times),
!data: time (s), conc of electrons (from spectrum) [cm-3], total energy [eV cm-3], median energy [eV],
! 2.000000e+04   13     
0.0000e+00   1.0000e-01   1.0000e+02   1.0000e+03   
1.0000e+01   1.0044e-01   9.9989e+01   9.9549e+02   
1.0798e+01   1.0048e-01   9.9988e+01   9.9513e+02   
1.1659e+01   1.0052e-01   9.9987e+01   9.9474e+02   
1.2589e+01   1.0056e-01   9.9986e+01   9.9432e+02   
1.3594e+01   1.0060e-01   9.9985e+01   9.9387e+02   
1.4678e+01   1.0065e-01   9.9984e+01   9.9339e+02   
1.5849e+01   1.0070e-01   9.9982e+01   9.9286e+02   
1.7113e+01   1.0076e-01   9.9981e+01   9.9230e+02   
1.8478e+01   1.0082e-01   9.9979e+01   9.9169e+02   
1.9953e+01   1.0088e-01   9.9978e+01   9.9103e+02   
2.1544e+01   1.0095e-01   9.9976e+01   9.9032e+02   
2.3263e+01   1.0103e-01   9.9974e+01   9.8955e+02   
