!Reaction contribution,
!tot_int(H2) - integrated amount of H2 dissociated [cm-3],
!sol_int  -  Solomon process of H2 [cm-3], 
!de_s_int - dissociative excitation of H2 (via singlet states),
!de_t_int - dissociative excitation of H2 (via triplet states),
!hei_int  - HeI excitation [cm-3];
!nh_int   - neutral heating rate due to collisions H2-H2, H2-He, [eV cm-3]
!h2_exc_el- H2 electronic excitation rate, in [cm-3 s-1],
!h2_exc_v - H2 ro-vibrational excitation rate, includes pure rotational excitation, in [cm-3 s-1],
!h2_exc_r - H2 pure rotational excitation, in [cm-3 s-1],
!distance from the GRB source to cloud layer centre [pc], H column density from the cloud boundary to layer centre [cm-2], H nuclei concentration [cm-3], nb of times,
! 1.006521e+02   2.012500e+22   1.000000e+04   79     
!time(s)     tot_int(H2) sol_int     de_s_int    de_t_int    hei_int     nh_int      h2_exc_el   h2_exc_v    h2_exc_r    
0.000e+00    0.00e+00    0.00e+00    0.00e+00    0.00e+00    0.00e+00    0.00e+00    0.00e+00    0.00e+00    0.00e+00    
1.000e+02    2.76e-03    2.12e-03    6.25e-04    1.24e-05    8.57e-04    4.06e-12    1.62e-04    1.40e-06    1.16e-06    
1.080e+02    2.98e-03    2.29e-03    6.74e-04    1.44e-05    9.25e-04    4.75e-12    1.62e-04    1.51e-06    1.25e-06    
1.166e+02    3.22e-03    2.48e-03    7.28e-04    1.68e-05    9.99e-04    5.56e-12    1.62e-04    1.63e-06    1.35e-06    
1.259e+02    3.48e-03    2.68e-03    7.87e-04    1.95e-05    1.08e-03    6.50e-12    1.62e-04    1.76e-06    1.46e-06    
1.359e+02    3.76e-03    2.89e-03    8.50e-04    2.27e-05    1.17e-03    7.60e-12    1.63e-04    1.91e-06    1.57e-06    
1.468e+02    4.07e-03    3.12e-03    9.18e-04    2.64e-05    1.26e-03    8.90e-12    1.63e-04    2.06e-06    1.70e-06    
1.585e+02    4.39e-03    3.37e-03    9.91e-04    3.08e-05    1.36e-03    1.04e-11    1.63e-04    2.22e-06    1.84e-06    
1.711e+02    4.75e-03    3.64e-03    1.07e-03    3.58e-05    1.47e-03    1.22e-11    1.63e-04    2.40e-06    1.98e-06    
1.848e+02    5.13e-03    3.93e-03    1.16e-03    4.17e-05    1.59e-03    1.43e-11    1.63e-04    2.60e-06    2.14e-06    
1.995e+02    5.55e-03    4.25e-03    1.25e-03    4.86e-05    1.71e-03    1.67e-11    1.63e-04    2.80e-06    2.32e-06    
2.154e+02    6.00e-03    4.59e-03    1.35e-03    5.66e-05    1.85e-03    1.96e-11    1.63e-04    3.03e-06    2.50e-06    
2.326e+02    6.48e-03    4.96e-03    1.46e-03    6.59e-05    2.00e-03    2.30e-11    1.63e-04    3.27e-06    2.71e-06    
2.512e+02    7.01e-03    5.36e-03    1.57e-03    7.68e-05    2.16e-03    2.70e-11    1.64e-04    3.54e-06    2.92e-06    
2.712e+02    7.58e-03    5.79e-03    1.70e-03    8.95e-05    2.33e-03    3.17e-11    1.64e-04    3.82e-06    3.16e-06    
2.929e+02    8.20e-03    6.25e-03    1.84e-03    1.04e-04    2.52e-03    3.72e-11    1.64e-04    4.13e-06    3.41e-06    
3.162e+02    8.86e-03    6.76e-03    1.99e-03    1.22e-04    2.72e-03    4.37e-11    1.64e-04    4.47e-06    3.69e-06    
3.415e+02    9.59e-03    7.30e-03    2.15e-03    1.42e-04    2.94e-03    5.14e-11    1.64e-04    4.83e-06    3.99e-06    
3.687e+02    1.04e-02    7.89e-03    2.32e-03    1.65e-04    3.18e-03    6.04e-11    1.65e-04    5.22e-06    4.31e-06    
3.981e+02    1.12e-02    8.52e-03    2.50e-03    1.92e-04    3.43e-03    7.11e-11    1.65e-04    5.64e-06    4.66e-06    
4.299e+02    1.21e-02    9.21e-03    2.71e-03    2.24e-04    3.71e-03    8.38e-11    1.65e-04    6.10e-06    5.04e-06    
4.642e+02    1.31e-02    9.96e-03    2.92e-03    2.62e-04    4.01e-03    9.87e-11    1.65e-04    6.60e-06    5.45e-06    
5.012e+02    1.42e-02    1.08e-02    3.16e-03    3.05e-04    4.33e-03    1.16e-10    1.66e-04    7.14e-06    5.90e-06    
5.412e+02    1.54e-02    1.16e-02    3.42e-03    3.56e-04    4.68e-03    1.37e-10    1.66e-04    7.72e-06    6.38e-06    
5.843e+02    1.67e-02    1.26e-02    3.69e-03    4.15e-04    5.06e-03    1.62e-10    1.66e-04    8.35e-06    6.90e-06    
6.310e+02    1.81e-02    1.36e-02    3.99e-03    4.84e-04    5.47e-03    1.92e-10    1.67e-04    9.03e-06    7.46e-06    
6.813e+02    1.96e-02    1.47e-02    4.31e-03    5.64e-04    5.91e-03    2.27e-10    1.67e-04    9.77e-06    8.08e-06    
7.356e+02    2.12e-02    1.59e-02    4.66e-03    6.58e-04    6.39e-03    2.69e-10    1.68e-04    1.06e-05    8.74e-06    
7.943e+02    2.30e-02    1.72e-02    5.04e-03    7.68e-04    6.91e-03    3.19e-10    1.68e-04    1.14e-05    9.46e-06    
8.577e+02    2.49e-02    1.86e-02    5.45e-03    8.96e-04    7.47e-03    3.79e-10    1.69e-04    1.24e-05    1.02e-05    
9.261e+02    2.71e-02    2.01e-02    5.90e-03    1.05e-03    8.08e-03    4.51e-10    1.69e-04    1.34e-05    1.11e-05    
1.000e+03    2.94e-02    2.18e-02    6.38e-03    1.22e-03    8.74e-03    5.36e-10    1.70e-04    1.45e-05    1.20e-05    
1.080e+03    3.19e-02    2.35e-02    6.90e-03    1.42e-03    9.45e-03    6.39e-10    1.71e-04    1.57e-05    1.30e-05    
1.166e+03    3.46e-02    2.55e-02    7.47e-03    1.66e-03    1.02e-02    7.62e-10    1.71e-04    1.71e-05    1.41e-05    
1.259e+03    3.76e-02    2.76e-02    8.08e-03    1.94e-03    1.11e-02    9.10e-10    1.72e-04    1.85e-05    1.53e-05    
1.359e+03    4.09e-02    2.99e-02    8.74e-03    2.26e-03    1.20e-02    1.09e-09    1.73e-04    2.01e-05    1.66e-05    
1.468e+03    4.44e-02    3.23e-02    9.46e-03    2.64e-03    1.30e-02    1.30e-09    1.74e-04    2.17e-05    1.80e-05    
1.585e+03    4.83e-02    3.50e-02    1.02e-02    3.09e-03    1.40e-02    1.57e-09    1.75e-04    2.36e-05    1.95e-05    
1.711e+03    5.26e-02    3.79e-02    1.11e-02    3.61e-03    1.52e-02    1.88e-09    1.76e-04    2.56e-05    2.12e-05    
1.848e+03    5.73e-02    4.11e-02    1.20e-02    4.21e-03    1.64e-02    2.26e-09    1.77e-04    2.78e-05    2.30e-05    
1.995e+03    6.25e-02    4.45e-02    1.30e-02    4.92e-03    1.78e-02    2.73e-09    1.78e-04    3.02e-05    2.49e-05    
2.154e+03    6.81e-02    4.83e-02    1.41e-02    5.75e-03    1.93e-02    3.29e-09    1.79e-04    3.28e-05    2.71e-05    
2.326e+03    7.43e-02    5.23e-02    1.53e-02    6.72e-03    2.09e-02    3.98e-09    1.81e-04    3.56e-05    2.94e-05    
2.512e+03    8.12e-02    5.68e-02    1.66e-02    7.85e-03    2.26e-02    4.82e-09    1.82e-04    3.87e-05    3.20e-05    
2.712e+03    8.87e-02    6.16e-02    1.80e-02    9.18e-03    2.45e-02    5.85e-09    1.84e-04    4.21e-05    3.48e-05    
2.929e+03    9.70e-02    6.68e-02    1.95e-02    1.07e-02    2.66e-02    7.12e-09    1.85e-04    4.58e-05    3.79e-05    
3.162e+03    1.06e-01    7.25e-02    2.11e-02    1.25e-02    2.89e-02    8.67e-09    1.87e-04    4.99e-05    4.13e-05    
3.415e+03    1.16e-01    7.88e-02    2.29e-02    1.47e-02    3.13e-02    1.06e-08    1.89e-04    5.44e-05    4.50e-05    
3.687e+03    1.28e-01    8.56e-02    2.49e-02    1.71e-02    3.40e-02    1.29e-08    1.91e-04    5.93e-05    4.90e-05    
3.981e+03    1.40e-01    9.30e-02    2.70e-02    2.01e-02    3.69e-02    1.58e-08    1.93e-04    6.46e-05    5.34e-05    
4.299e+03    1.54e-01    1.01e-01    2.93e-02    2.35e-02    4.00e-02    1.94e-08    1.95e-04    7.05e-05    5.83e-05    
4.642e+03    1.69e-01    1.10e-01    3.19e-02    2.75e-02    4.35e-02    2.38e-08    1.97e-04    7.70e-05    6.37e-05    
5.012e+03    1.86e-01    1.20e-01    3.46e-02    3.21e-02    4.72e-02    2.94e-08    2.00e-04    8.41e-05    6.96e-05    
5.412e+03    2.05e-01    1.30e-01    3.76e-02    3.76e-02    5.13e-02    3.62e-08    2.02e-04    9.20e-05    7.61e-05    
5.843e+03    2.27e-01    1.42e-01    4.09e-02    4.40e-02    5.58e-02    4.47e-08    2.05e-04    1.01e-04    8.32e-05    
6.310e+03    2.50e-01    1.54e-01    4.45e-02    5.15e-02    6.07e-02    5.54e-08    2.08e-04    1.10e-04    9.11e-05    
6.813e+03    2.77e-01    1.68e-01    4.85e-02    6.03e-02    6.60e-02    6.86e-08    2.10e-04    1.21e-04    9.98e-05    
7.356e+03    3.07e-01    1.83e-01    5.28e-02    7.05e-02    7.18e-02    8.53e-08    2.13e-04    1.32e-04    1.09e-04    
7.943e+03    3.40e-01    2.00e-01    5.74e-02    8.26e-02    7.82e-02    1.06e-07    2.16e-04    1.45e-04    1.20e-04    
8.577e+03    3.77e-01    2.18e-01    6.26e-02    9.66e-02    8.51e-02    1.32e-07    2.20e-04    1.59e-04    1.32e-04    
9.261e+03    4.19e-01    2.38e-01    6.82e-02    1.13e-01    9.27e-02    1.65e-07    2.23e-04    1.75e-04    1.45e-04    
1.000e+04    4.66e-01    2.60e-01    7.43e-02    1.32e-01    1.01e-01    2.06e-07    2.26e-04    1.92e-04    1.59e-04    
1.080e+04    5.20e-01    2.84e-01    8.10e-02    1.55e-01    1.10e-01    2.59e-07    2.30e-04    2.11e-04    1.75e-04    
1.166e+04    5.79e-01    3.10e-01    8.84e-02    1.81e-01    1.20e-01    3.24e-07    2.33e-04    2.32e-04    1.92e-04    
1.259e+04    6.47e-01    3.39e-01    9.64e-02    2.12e-01    1.31e-01    4.08e-07    2.37e-04    2.56e-04    2.12e-04    
1.359e+04    7.23e-01    3.70e-01    1.05e-01    2.47e-01    1.43e-01    5.13e-07    2.41e-04    2.82e-04    2.33e-04    
1.468e+04    8.09e-01    4.05e-01    1.15e-01    2.89e-01    1.55e-01    6.46e-07    2.44e-04    3.10e-04    2.57e-04    
1.585e+04    9.05e-01    4.43e-01    1.25e-01    3.37e-01    1.70e-01    8.16e-07    2.48e-04    3.42e-04    2.83e-04    
1.711e+04    1.01e+00    4.84e-01    1.37e-01    3.93e-01    1.85e-01    1.03e-06    2.52e-04    3.77e-04    3.12e-04    
1.848e+04    1.14e+00    5.30e-01    1.49e-01    4.58e-01    2.02e-01    1.30e-06    2.56e-04    4.15e-04    3.44e-04    
1.995e+04    1.28e+00    5.80e-01    1.63e-01    5.34e-01    2.20e-01    1.65e-06    2.59e-04    4.58e-04    3.79e-04    
2.154e+04    1.43e+00    6.35e-01    1.78e-01    6.21e-01    2.40e-01    2.09e-06    2.63e-04    5.05e-04    4.18e-04    
2.326e+04    1.61e+00    6.95e-01    1.95e-01    7.21e-01    2.62e-01    2.66e-06    2.67e-04    5.57e-04    4.61e-04    
2.512e+04    1.81e+00    7.60e-01    2.13e-01    8.37e-01    2.86e-01    3.38e-06    2.70e-04    6.14e-04    5.08e-04    
2.712e+04    2.03e+00    8.32e-01    2.32e-01    9.70e-01    3.12e-01    4.30e-06    2.74e-04    6.77e-04    5.60e-04    
2.929e+04    2.29e+00    9.10e-01    2.53e-01    1.12e+00    3.41e-01    5.47e-06    2.77e-04    7.46e-04    6.17e-04    
3.162e+04    2.57e+00    9.96e-01    2.77e-01    1.30e+00    3.72e-01    6.97e-06    2.80e-04    8.22e-04    6.79e-04    
3.415e+04    2.89e+00    1.09e+00    3.02e-01    1.50e+00    4.05e-01    8.89e-06    2.83e-04    9.06e-04    7.48e-04    
3.687e+04    3.25e+00    1.19e+00    3.30e-01    1.72e+00    4.41e-01    1.13e-05    2.85e-04    9.97e-04    8.23e-04    
