!Kinetic energy of electrons,
!first row: distance from the GRB source to cloud layer centre [pc], H column density from the cloud boundary to layer centre [cm-2], H nuclei concentration [cm-3], nb of rows (= nb of times),
!data: time (s), conc of electrons (from spectrum) [cm-3], total energy [eV cm-3], median energy [eV],
! 1.006521e+02   2.012500e+22   1.000000e+04   79     
0.0000e+00   1.0000e+00   1.0116e+03   1.0116e+03   
1.0000e+02   1.0246e+00   1.0110e+03   9.8673e+02   
1.0798e+02   1.0266e+00   1.0109e+03   9.8479e+02   
1.1659e+02   1.0287e+00   1.0109e+03   9.8270e+02   
1.2589e+02   1.0310e+00   1.0108e+03   9.8045e+02   
1.3594e+02   1.0335e+00   1.0108e+03   9.7804e+02   
1.4678e+02   1.0361e+00   1.0107e+03   9.7544e+02   
1.5849e+02   1.0390e+00   1.0106e+03   9.7265e+02   
1.7113e+02   1.0422e+00   1.0105e+03   9.6965e+02   
1.8478e+02   1.0455e+00   1.0104e+03   9.6644e+02   
1.9953e+02   1.0492e+00   1.0103e+03   9.6298e+02   
2.1544e+02   1.0531e+00   1.0102e+03   9.5928e+02   
2.3263e+02   1.0574e+00   1.0101e+03   9.5531e+02   
2.5119e+02   1.0620e+00   1.0100e+03   9.5105e+02   
2.7123e+02   1.0670e+00   1.0099e+03   9.4649e+02   
2.9286e+02   1.0724e+00   1.0097e+03   9.4161e+02   
3.1623e+02   1.0782e+00   1.0096e+03   9.3639e+02   
3.4145e+02   1.0845e+00   1.0094e+03   9.3081e+02   
3.6869e+02   1.0913e+00   1.0092e+03   9.2485e+02   
3.9811e+02   1.0986e+00   1.0090e+03   9.1848e+02   
4.2987e+02   1.1065e+00   1.0088e+03   9.1170e+02   
4.6416e+02   1.1151e+00   1.0086e+03   9.0447e+02   
5.0119e+02   1.1244e+00   1.0084e+03   8.9678e+02   
5.4117e+02   1.1345e+00   1.0081e+03   8.8861e+02   
5.8434e+02   1.1453e+00   1.0078e+03   8.7992e+02   
6.3096e+02   1.1571e+00   1.0075e+03   8.7071e+02   
6.8129e+02   1.1698e+00   1.0072e+03   8.6095e+02   
7.3564e+02   1.1836e+00   1.0068e+03   8.5062e+02   
7.9433e+02   1.1985e+00   1.0064e+03   8.3971e+02   
8.5770e+02   1.2147e+00   1.0060e+03   8.2820e+02   
9.2612e+02   1.2321e+00   1.0055e+03   8.1608e+02   
1.0000e+03   1.2511e+00   1.0050e+03   8.0333e+02   
1.0798e+03   1.2716e+00   1.0045e+03   7.8995e+02   
1.1659e+03   1.2938e+00   1.0039e+03   7.7592e+02   
1.2589e+03   1.3179e+00   1.0032e+03   7.6126e+02   
1.3594e+03   1.3440e+00   1.0026e+03   7.4596e+02   
1.4678e+03   1.3723e+00   1.0018e+03   7.3003e+02   
1.5849e+03   1.4030e+00   1.0010e+03   7.1347e+02   
1.7113e+03   1.4363e+00   1.0001e+03   6.9631e+02   
1.8478e+03   1.4725e+00   9.9915e+02   6.7856e+02   
1.9953e+03   1.5117e+00   9.9811e+02   6.6025e+02   
2.1544e+03   1.5543e+00   9.9698e+02   6.4142e+02   
2.3263e+03   1.6006e+00   9.9575e+02   6.2209e+02   
2.5119e+03   1.6510e+00   9.9442e+02   6.0232e+02   
2.7123e+03   1.7057e+00   9.9296e+02   5.8215e+02   
2.9286e+03   1.7652e+00   9.9138e+02   5.6163e+02   
3.1623e+03   1.8299e+00   9.8966e+02   5.4082e+02   
3.4145e+03   1.9004e+00   9.8778e+02   5.1978e+02   
3.6869e+03   1.9771e+00   9.8574e+02   4.9857e+02   
3.9811e+03   2.0607e+00   9.8351e+02   4.7727e+02   
4.2987e+03   2.1518e+00   9.8108e+02   4.5594e+02   
4.6416e+03   2.2511e+00   9.7843e+02   4.3465e+02   
5.0119e+03   2.3594e+00   9.7553e+02   4.1347e+02   
5.4117e+03   2.4775e+00   9.7237e+02   3.9248e+02   
5.8434e+03   2.6064e+00   9.6892e+02   3.7174e+02   
6.3096e+03   2.7472e+00   9.6514e+02   3.5132e+02   
6.8129e+03   2.9009e+00   9.6102e+02   3.3128e+02   
7.3564e+03   3.0689e+00   9.5650e+02   3.1168e+02   
7.9433e+03   3.2524e+00   9.5156e+02   2.9257e+02   
8.5770e+03   3.4531e+00   9.4616e+02   2.7400e+02   
9.2612e+03   3.6724e+00   9.4024e+02   2.5603e+02   
1.0000e+04   3.9123e+00   9.3375e+02   2.3867e+02   
1.0798e+04   4.1745e+00   9.2665e+02   2.2198e+02   
1.1659e+04   4.4614e+00   9.1887e+02   2.0596e+02   
1.2589e+04   4.7752e+00   9.1034e+02   1.9064e+02   
1.3594e+04   5.1183e+00   9.0100e+02   1.7603e+02   
1.4678e+04   5.4937e+00   8.9076e+02   1.6214e+02   
1.5849e+04   5.9041e+00   8.7955e+02   1.4897e+02   
1.7113e+04   6.3529e+00   8.6725e+02   1.3651e+02   
1.8478e+04   6.8436e+00   8.5378e+02   1.2476e+02   
1.9953e+04   7.3799e+00   8.3903e+02   1.1369e+02   
2.1544e+04   7.9659e+00   8.2287e+02   1.0330e+02   
2.3263e+04   8.6060e+00   8.0517e+02   9.3559e+01   
2.5119e+04   9.3050e+00   7.8580e+02   8.4449e+01   
2.7123e+04   1.0068e+01   7.6461e+02   7.5946e+01   
2.9286e+04   1.0900e+01   7.4143e+02   6.8023e+01   
3.1623e+04   1.1806e+01   7.1610e+02   6.0655e+01   
3.4145e+04   1.2793e+01   6.8845e+02   5.3816e+01   
3.6869e+04   1.3865e+01   6.5832e+02   4.7482e+01   
