!Evolution of concentrations of chemical species,
!first row: H nuclei concentration [cm-3], nb of times, number of species,
!second row: specimen list,
! 2.000000e+04   151    8      
!time(s)     e-          H           H+          H2          H2+         He          He+         He++        
0.0000e+00   1.000e-99   1.000e-99   1.000e-99   1.000e+04   1.000e-99   2.000e-05   1.000e-99   1.000e-99   
1.0000e+01   5.500e-05   1.920e-05   4.070e-06   1.000e+04   5.093e-05   2.000e-05   4.231e-14   4.712e-24   
1.0798e+01   5.938e-05   2.073e-05   4.394e-06   1.000e+04   5.499e-05   2.000e-05   4.568e-14   5.493e-24   
1.1659e+01   6.412e-05   2.239e-05   4.745e-06   1.000e+04   5.937e-05   2.000e-05   4.932e-14   6.402e-24   
1.2589e+01   6.923e-05   2.418e-05   5.123e-06   1.000e+04   6.411e-05   2.000e-05   5.326e-14   7.463e-24   
1.3594e+01   7.475e-05   2.611e-05   5.532e-06   1.000e+04   6.922e-05   2.000e-05   5.750e-14   8.698e-24   
1.4678e+01   8.071e-05   2.819e-05   5.973e-06   1.000e+04   7.474e-05   2.000e-05   6.208e-14   1.014e-23   
1.5849e+01   8.715e-05   3.045e-05   6.449e-06   1.000e+04   8.070e-05   2.000e-05   6.703e-14   1.182e-23   
1.7113e+01   9.410e-05   3.288e-05   6.963e-06   1.000e+04   8.714e-05   2.000e-05   7.237e-14   1.377e-23   
1.8478e+01   1.016e-04   3.551e-05   7.519e-06   1.000e+04   9.408e-05   2.000e-05   7.813e-14   1.605e-23   
1.9953e+01   1.097e-04   3.834e-05   8.118e-06   1.000e+04   1.016e-04   2.000e-05   8.435e-14   1.870e-23   
2.1544e+01   1.184e-04   4.141e-05   8.765e-06   1.000e+04   1.097e-04   2.000e-05   9.107e-14   2.180e-23   
2.3263e+01   1.279e-04   4.472e-05   9.464e-06   1.000e+04   1.184e-04   2.000e-05   9.832e-14   2.540e-23   
2.5119e+01   1.381e-04   4.830e-05   1.022e-05   1.000e+04   1.279e-04   2.000e-05   1.062e-13   2.960e-23   
2.7123e+01   1.491e-04   5.216e-05   1.103e-05   1.000e+04   1.381e-04   2.000e-05   1.146e-13   3.449e-23   
2.9286e+01   1.610e-04   5.633e-05   1.191e-05   1.000e+04   1.491e-04   2.000e-05   1.237e-13   4.018e-23   
3.1623e+01   1.738e-04   6.084e-05   1.286e-05   1.000e+04   1.610e-04   2.000e-05   1.336e-13   4.682e-23   
3.4145e+01   1.877e-04   6.571e-05   1.389e-05   1.000e+04   1.738e-04   2.000e-05   1.442e-13   5.454e-23   
3.6869e+01   2.026e-04   7.097e-05   1.499e-05   1.000e+04   1.876e-04   2.000e-05   1.557e-13   6.354e-23   
3.9811e+01   2.188e-04   7.665e-05   1.619e-05   1.000e+04   2.026e-04   2.000e-05   1.680e-13   7.402e-23   
4.2987e+01   2.362e-04   8.279e-05   1.748e-05   1.000e+04   2.187e-04   2.000e-05   1.814e-13   8.622e-23   
4.6416e+01   2.550e-04   8.942e-05   1.887e-05   1.000e+04   2.362e-04   2.000e-05   1.958e-13   1.004e-22   
5.0119e+01   2.753e-04   9.659e-05   2.038e-05   1.000e+04   2.550e-04   2.000e-05   2.114e-13   1.169e-22   
5.4117e+01   2.973e-04   1.043e-04   2.200e-05   1.000e+04   2.753e-04   2.000e-05   2.282e-13   1.362e-22   
5.8434e+01   3.210e-04   1.127e-04   2.375e-05   1.000e+04   2.972e-04   2.000e-05   2.463e-13   1.586e-22   
6.3096e+01   3.465e-04   1.217e-04   2.564e-05   1.000e+04   3.209e-04   2.000e-05   2.658e-13   1.846e-22   
6.8129e+01   3.741e-04   1.315e-04   2.768e-05   1.000e+04   3.464e-04   2.000e-05   2.869e-13   2.149e-22   
7.3564e+01   4.039e-04   1.421e-04   2.989e-05   1.000e+04   3.740e-04   2.000e-05   3.097e-13   2.502e-22   
7.9433e+01   4.361e-04   1.535e-04   3.227e-05   1.000e+04   4.038e-04   2.000e-05   3.342e-13   2.912e-22   
8.5770e+01   4.708e-04   1.658e-04   3.484e-05   1.000e+04   4.359e-04   2.000e-05   3.607e-13   3.388e-22   
9.2612e+01   5.082e-04   1.792e-04   3.761e-05   1.000e+04   4.706e-04   2.000e-05   3.892e-13   3.942e-22   
1.0000e+02   5.487e-04   1.936e-04   4.060e-05   1.000e+04   5.081e-04   2.000e-05   4.200e-13   4.586e-22   
1.0798e+02   5.923e-04   2.092e-04   4.383e-05   1.000e+04   5.485e-04   2.000e-05   4.532e-13   5.334e-22   
1.1659e+02   6.394e-04   2.261e-04   4.732e-05   1.000e+04   5.921e-04   2.000e-05   4.890e-13   6.202e-22   
1.2589e+02   6.902e-04   2.443e-04   5.108e-05   1.000e+04   6.392e-04   2.000e-05   5.276e-13   7.211e-22   
1.3594e+02   7.451e-04   2.641e-04   5.514e-05   1.000e+04   6.900e-04   2.000e-05   5.692e-13   8.382e-22   
1.4678e+02   8.043e-04   2.854e-04   5.952e-05   1.000e+04   7.448e-04   2.000e-05   6.141e-13   9.740e-22   
1.5849e+02   8.682e-04   3.085e-04   6.424e-05   1.000e+04   8.039e-04   2.000e-05   6.624e-13   1.131e-21   
1.7113e+02   9.371e-04   3.335e-04   6.934e-05   1.000e+04   8.677e-04   2.000e-05   7.145e-13   1.314e-21   
1.8478e+02   1.011e-03   3.605e-04   7.485e-05   1.000e+04   9.366e-04   2.000e-05   7.706e-13   1.526e-21   
1.9953e+02   1.092e-03   3.898e-04   8.078e-05   1.000e+04   1.011e-03   2.000e-05   8.311e-13   1.771e-21   
2.1544e+02   1.178e-03   4.215e-04   8.719e-05   1.000e+04   1.091e-03   2.000e-05   8.962e-13   2.054e-21   
2.3263e+02   1.272e-03   4.558e-04   9.409e-05   1.000e+04   1.177e-03   2.000e-05   9.662e-13   2.382e-21   
2.5119e+02   1.372e-03   4.930e-04   1.015e-04   1.000e+04   1.271e-03   2.000e-05   1.042e-12   2.761e-21   
2.7123e+02   1.481e-03   5.333e-04   1.096e-04   1.000e+04   1.371e-03   2.000e-05   1.123e-12   3.199e-21   
2.9286e+02   1.598e-03   5.769e-04   1.182e-04   1.000e+04   1.480e-03   2.000e-05   1.210e-12   3.705e-21   
3.1623e+02   1.724e-03   6.242e-04   1.276e-04   1.000e+04   1.596e-03   2.000e-05   1.304e-12   4.287e-21   
3.4145e+02   1.860e-03   6.755e-04   1.376e-04   1.000e+04   1.722e-03   2.000e-05   1.405e-12   4.959e-21   
3.6869e+02   2.007e-03   7.311e-04   1.485e-04   1.000e+04   1.858e-03   2.000e-05   1.513e-12   5.731e-21   
3.9811e+02   2.164e-03   7.913e-04   1.602e-04   1.000e+04   2.004e-03   2.000e-05   1.630e-12   6.620e-21   
4.2987e+02   2.335e-03   8.568e-04   1.728e-04   1.000e+04   2.162e-03   2.000e-05   1.755e-12   7.639e-21   
4.6416e+02   2.518e-03   9.278e-04   1.863e-04   1.000e+04   2.331e-03   2.000e-05   1.889e-12   8.808e-21   
5.0119e+02   2.715e-03   1.005e-03   2.009e-04   1.000e+04   2.514e-03   2.000e-05   2.033e-12   1.015e-20   
5.4117e+02   2.927e-03   1.089e-03   2.166e-04   1.000e+04   2.711e-03   2.000e-05   2.187e-12   1.167e-20   
5.8434e+02   3.156e-03   1.180e-03   2.335e-04   1.000e+04   2.922e-03   2.000e-05   2.352e-12   1.342e-20   
6.3096e+02   3.401e-03   1.278e-03   2.517e-04   1.000e+04   3.149e-03   2.000e-05   2.528e-12   1.540e-20   
6.8129e+02   3.665e-03   1.386e-03   2.712e-04   1.000e+04   3.394e-03   2.000e-05   2.717e-12   1.766e-20   
7.3564e+02   3.949e-03   1.503e-03   2.922e-04   1.000e+04   3.656e-03   2.000e-05   2.919e-12   2.022e-20   
7.9433e+02   4.253e-03   1.630e-03   3.147e-04   1.000e+04   3.938e-03   2.000e-05   3.134e-12   2.311e-20   
8.5770e+02   4.580e-03   1.768e-03   3.389e-04   1.000e+04   4.241e-03   2.000e-05   3.363e-12   2.636e-20   
9.2612e+02   4.930e-03   1.919e-03   3.648e-04   1.000e+04   4.565e-03   2.000e-05   3.607e-12   3.002e-20   
1.0000e+03   5.305e-03   2.083e-03   3.926e-04   1.000e+04   4.912e-03   2.000e-05   3.866e-12   3.412e-20   
1.0798e+03   5.706e-03   2.262e-03   4.223e-04   1.000e+04   5.284e-03   2.000e-05   4.140e-12   3.868e-20   
1.1659e+03   6.135e-03   2.457e-03   4.540e-04   1.000e+04   5.681e-03   2.000e-05   4.431e-12   4.375e-20   
1.2589e+03   6.593e-03   2.670e-03   4.879e-04   1.000e+04   6.105e-03   2.000e-05   4.739e-12   4.936e-20   
1.3594e+03   7.080e-03   2.902e-03   5.239e-04   1.000e+04   6.556e-03   2.000e-05   5.062e-12   5.552e-20   
1.4678e+03   7.599e-03   3.155e-03   5.623e-04   1.000e+04   7.037e-03   2.000e-05   5.403e-12   6.225e-20   
1.5849e+03   8.150e-03   3.432e-03   6.031e-04   1.000e+04   7.547e-03   2.000e-05   5.760e-12   6.957e-20   
1.7113e+03   8.734e-03   3.734e-03   6.463e-04   1.000e+04   8.088e-03   2.000e-05   6.133e-12   7.747e-20   
1.8478e+03   9.351e-03   4.063e-03   6.920e-04   1.000e+04   8.659e-03   2.000e-05   6.521e-12   8.592e-20   
1.9953e+03   1.000e-02   4.423e-03   7.401e-04   1.000e+04   9.261e-03   2.000e-05   6.924e-12   9.490e-20   
2.1544e+03   1.068e-02   4.816e-03   7.907e-04   1.000e+04   9.894e-03   2.000e-05   7.340e-12   1.043e-19   
2.3263e+03   1.140e-02   5.245e-03   8.436e-04   1.000e+04   1.056e-02   2.000e-05   7.767e-12   1.142e-19   
2.5119e+03   1.215e-02   5.713e-03   8.988e-04   1.000e+04   1.125e-02   2.000e-05   8.203e-12   1.243e-19   
2.7123e+03   1.292e-02   6.223e-03   9.561e-04   1.000e+04   1.196e-02   2.000e-05   8.646e-12   1.346e-19   
2.9286e+03   1.372e-02   6.778e-03   1.015e-03   1.000e+04   1.270e-02   2.000e-05   9.093e-12   1.450e-19   
3.1623e+03   1.454e-02   7.382e-03   1.076e-03   1.000e+04   1.347e-02   2.000e-05   9.540e-12   1.552e-19   
3.4145e+03   1.538e-02   8.038e-03   1.138e-03   1.000e+04   1.424e-02   2.000e-05   9.983e-12   1.652e-19   
3.6869e+03   1.623e-02   8.748e-03   1.201e-03   1.000e+04   1.503e-02   2.000e-05   1.042e-11   1.747e-19   
3.9811e+03   1.708e-02   9.516e-03   1.264e-03   1.000e+04   1.582e-02   2.000e-05   1.084e-11   1.837e-19   
4.2987e+03   1.793e-02   1.034e-02   1.327e-03   1.000e+04   1.660e-02   2.000e-05   1.125e-11   1.919e-19   
4.6416e+03   1.877e-02   1.123e-02   1.389e-03   1.000e+04   1.738e-02   2.000e-05   1.164e-11   1.993e-19   
5.0119e+03   1.959e-02   1.218e-02   1.449e-03   1.000e+04   1.814e-02   2.000e-05   1.200e-11   2.058e-19   
5.4117e+03   2.037e-02   1.319e-02   1.508e-03   1.000e+04   1.887e-02   2.000e-05   1.233e-11   2.113e-19   
5.8434e+03   2.113e-02   1.425e-02   1.563e-03   1.000e+04   1.956e-02   2.000e-05   1.264e-11   2.160e-19   
6.3096e+03   2.183e-02   1.537e-02   1.616e-03   1.000e+04   2.022e-02   2.000e-05   1.290e-11   2.197e-19   
6.8129e+03   2.248e-02   1.654e-02   1.664e-03   1.000e+04   2.082e-02   2.000e-05   1.314e-11   2.226e-19   
7.3564e+03   2.308e-02   1.774e-02   1.708e-03   1.000e+04   2.137e-02   2.000e-05   1.334e-11   2.248e-19   
7.9433e+03   2.361e-02   1.897e-02   1.747e-03   1.000e+04   2.186e-02   2.000e-05   1.351e-11   2.263e-19   
8.5770e+03   2.407e-02   2.021e-02   1.782e-03   1.000e+04   2.229e-02   2.000e-05   1.364e-11   2.274e-19   
9.2612e+03   2.448e-02   2.146e-02   1.811e-03   1.000e+04   2.266e-02   2.000e-05   1.375e-11   2.282e-19   
1.0000e+04   2.481e-02   2.270e-02   1.836e-03   1.000e+04   2.298e-02   2.000e-05   1.383e-11   2.286e-19   
1.0798e+04   2.509e-02   2.392e-02   1.857e-03   1.000e+04   2.324e-02   2.000e-05   1.389e-11   2.289e-19   
1.1659e+04   2.532e-02   2.510e-02   1.874e-03   1.000e+04   2.344e-02   2.000e-05   1.393e-11   2.291e-19   
1.2589e+04   2.549e-02   2.623e-02   1.887e-03   1.000e+04   2.361e-02   2.000e-05   1.396e-11   2.292e-19   
1.3594e+04   2.563e-02   2.730e-02   1.897e-03   1.000e+04   2.373e-02   2.000e-05   1.398e-11   2.292e-19   
1.4678e+04   2.573e-02   2.830e-02   1.904e-03   1.000e+04   2.383e-02   2.000e-05   1.400e-11   2.292e-19   
1.5849e+04   2.581e-02   2.923e-02   1.910e-03   1.000e+04   2.390e-02   2.000e-05   1.401e-11   2.292e-19   
1.7113e+04   2.586e-02   3.008e-02   1.914e-03   1.000e+04   2.395e-02   2.000e-05   1.401e-11   2.292e-19   
1.8478e+04   2.590e-02   3.085e-02   1.917e-03   1.000e+04   2.398e-02   2.000e-05   1.401e-11   2.292e-19   
1.9953e+04   2.593e-02   3.155e-02   1.919e-03   1.000e+04   2.401e-02   2.000e-05   1.401e-11   2.292e-19   
2.1544e+04   2.594e-02   3.218e-02   1.920e-03   1.000e+04   2.402e-02   2.000e-05   1.401e-11   2.292e-19   
2.3263e+04   2.595e-02   3.273e-02   1.921e-03   1.000e+04   2.403e-02   2.000e-05   1.402e-11   2.292e-19   
2.5119e+04   2.596e-02   3.322e-02   1.921e-03   1.000e+04   2.404e-02   2.000e-05   1.402e-11   2.292e-19   
2.7123e+04   2.597e-02   3.365e-02   1.922e-03   1.000e+04   2.404e-02   2.000e-05   1.402e-11   2.292e-19   
2.9286e+04   2.597e-02   3.403e-02   1.922e-03   1.000e+04   2.405e-02   2.000e-05   1.402e-11   2.292e-19   
3.1623e+04   2.597e-02   3.436e-02   1.922e-03   1.000e+04   2.405e-02   2.000e-05   1.402e-11   2.292e-19   
3.4145e+04   2.597e-02   3.464e-02   1.922e-03   1.000e+04   2.405e-02   2.000e-05   1.402e-11   2.292e-19   
3.6869e+04   2.597e-02   3.488e-02   1.922e-03   1.000e+04   2.405e-02   2.000e-05   1.402e-11   2.292e-19   
3.9811e+04   2.597e-02   3.509e-02   1.922e-03   1.000e+04   2.405e-02   2.000e-05   1.402e-11   2.292e-19   
4.2987e+04   2.597e-02   3.526e-02   1.922e-03   1.000e+04   2.405e-02   2.000e-05   1.402e-11   2.292e-19   
4.6416e+04   2.597e-02   3.541e-02   1.922e-03   1.000e+04   2.405e-02   2.000e-05   1.402e-11   2.292e-19   
5.0119e+04   2.597e-02   3.553e-02   1.922e-03   1.000e+04   2.405e-02   2.000e-05   1.402e-11   2.292e-19   
5.4117e+04   2.597e-02   3.563e-02   1.922e-03   1.000e+04   2.405e-02   2.000e-05   1.402e-11   2.292e-19   
5.8434e+04   2.597e-02   3.571e-02   1.922e-03   1.000e+04   2.405e-02   2.000e-05   1.402e-11   2.292e-19   
6.3096e+04   2.597e-02   3.577e-02   1.922e-03   1.000e+04   2.405e-02   2.000e-05   1.402e-11   2.292e-19   
6.8129e+04   2.597e-02   3.582e-02   1.922e-03   1.000e+04   2.405e-02   2.000e-05   1.402e-11   2.292e-19   
7.3564e+04   2.597e-02   3.586e-02   1.922e-03   1.000e+04   2.405e-02   2.000e-05   1.402e-11   2.292e-19   
7.9433e+04   2.597e-02   3.589e-02   1.922e-03   1.000e+04   2.405e-02   2.000e-05   1.402e-11   2.292e-19   
8.5770e+04   2.597e-02   3.591e-02   1.922e-03   1.000e+04   2.405e-02   2.000e-05   1.402e-11   2.292e-19   
9.2612e+04   2.597e-02   3.593e-02   1.922e-03   1.000e+04   2.405e-02   2.000e-05   1.402e-11   2.292e-19   
1.0000e+05   2.597e-02   3.594e-02   1.922e-03   1.000e+04   2.405e-02   2.000e-05   1.402e-11   2.292e-19   
1.0798e+05   2.597e-02   3.594e-02   1.922e-03   1.000e+04   2.405e-02   2.000e-05   1.402e-11   2.292e-19   
1.1659e+05   2.597e-02   3.595e-02   1.922e-03   1.000e+04   2.405e-02   2.000e-05   1.402e-11   2.292e-19   
1.2589e+05   2.597e-02   3.595e-02   1.922e-03   1.000e+04   2.405e-02   2.000e-05   1.402e-11   2.292e-19   
1.3594e+05   2.597e-02   3.595e-02   1.922e-03   1.000e+04   2.405e-02   2.000e-05   1.402e-11   2.292e-19   
1.4678e+05   2.597e-02   3.595e-02   1.922e-03   1.000e+04   2.405e-02   2.000e-05   1.402e-11   2.292e-19   
1.5849e+05   2.597e-02   3.595e-02   1.922e-03   1.000e+04   2.405e-02   2.000e-05   1.402e-11   2.292e-19   
1.7113e+05   2.597e-02   3.595e-02   1.922e-03   1.000e+04   2.405e-02   2.000e-05   1.402e-11   2.292e-19   
1.8478e+05   2.597e-02   3.595e-02   1.922e-03   1.000e+04   2.405e-02   2.000e-05   1.402e-11   2.292e-19   
1.9953e+05   2.597e-02   3.595e-02   1.922e-03   1.000e+04   2.405e-02   2.000e-05   1.402e-11   2.292e-19   
2.1544e+05   2.597e-02   3.595e-02   1.922e-03   1.000e+04   2.405e-02   2.000e-05   1.402e-11   2.292e-19   
2.3263e+05   2.597e-02   3.595e-02   1.922e-03   1.000e+04   2.405e-02   2.000e-05   1.402e-11   2.292e-19   
2.5119e+05   2.597e-02   3.595e-02   1.922e-03   1.000e+04   2.405e-02   2.000e-05   1.402e-11   2.292e-19   
2.7123e+05   2.597e-02   3.595e-02   1.922e-03   1.000e+04   2.405e-02   2.000e-05   1.402e-11   2.292e-19   
2.9286e+05   2.597e-02   3.595e-02   1.922e-03   1.000e+04   2.405e-02   2.000e-05   1.402e-11   2.292e-19   
3.1623e+05   2.597e-02   3.595e-02   1.922e-03   1.000e+04   2.405e-02   2.000e-05   1.402e-11   2.292e-19   
3.4145e+05   2.597e-02   3.595e-02   1.922e-03   1.000e+04   2.405e-02   2.000e-05   1.402e-11   2.292e-19   
3.6869e+05   2.597e-02   3.595e-02   1.922e-03   1.000e+04   2.405e-02   2.000e-05   1.402e-11   2.292e-19   
3.9811e+05   2.597e-02   3.595e-02   1.922e-03   1.000e+04   2.405e-02   2.000e-05   1.402e-11   2.292e-19   
4.2987e+05   2.597e-02   3.595e-02   1.922e-03   1.000e+04   2.405e-02   2.000e-05   1.402e-11   2.292e-19   
4.6416e+05   2.597e-02   3.595e-02   1.922e-03   1.000e+04   2.405e-02   2.000e-05   1.402e-11   2.292e-19   
5.0119e+05   2.597e-02   3.595e-02   1.922e-03   1.000e+04   2.405e-02   2.000e-05   1.402e-11   2.292e-19   
5.4117e+05   2.597e-02   3.595e-02   1.922e-03   1.000e+04   2.405e-02   2.000e-05   1.402e-11   2.292e-19   
5.8434e+05   2.597e-02   3.595e-02   1.922e-03   1.000e+04   2.405e-02   2.000e-05   1.402e-11   2.292e-19   
6.3096e+05   2.597e-02   3.595e-02   1.922e-03   1.000e+04   2.405e-02   2.000e-05   1.402e-11   2.292e-19   
6.8129e+05   2.597e-02   3.595e-02   1.922e-03   1.000e+04   2.405e-02   2.000e-05   1.402e-11   2.292e-19   
7.3564e+05   2.597e-02   3.595e-02   1.922e-03   1.000e+04   2.405e-02   2.000e-05   1.402e-11   2.292e-19   
7.9433e+05   2.597e-02   3.595e-02   1.922e-03   1.000e+04   2.405e-02   2.000e-05   1.402e-11   2.292e-19   
8.5770e+05   2.597e-02   3.595e-02   1.922e-03   1.000e+04   2.405e-02   2.000e-05   1.402e-11   2.292e-19   
9.2612e+05   2.597e-02   3.595e-02   1.922e-03   1.000e+04   2.405e-02   2.000e-05   1.402e-11   2.292e-19   
